Time,Altitude,Pressure,Velocity,Temperature,Events,Voltages
0.00,2.812165E-06,999.00,0,85.28, -,8.751458
0.05,5.523603,998.80,5.238095,85.28, -,8.751458
0.10,11.0481,998.60,10.47619,85.28, -,8.751458
0.15,24.86242,998.10,23.61905,85.28, -,8.751458
0.20,33.15336,997.80,31.52381,85.28, -,8.751458
0.25,41.44632,997.50,39.42857,85.28, -,8.751458
0.30,52.50787,997.10,49.95238,85.28, -,8.751458
0.35,66.33901,996.60,63.14286,85.28, -,8.751458
0.40,77.40696,996.20,73.66666,85.28, -,8.751458
0.45,91.24823,995.70,86.85714,85.28, -,8.751458
0.50,105.0951,995.20,100.0476,85.28, -,8.751458
0.55,124.4906,994.50,118.5238,85.1, -,8.770906
0.60,141.1231,993.90,134.381,85.1, -,8.770906
0.65,157.7654,993.30,150.2381,85.1, -,8.770906
0.70,171.6394,992.80,163.4286,85.1, -,8.770906
0.75,202.1814,991.70,192.5238,85.1, -,8.770906
0.80,221.6323,991.00,211.0476,85.1, -,8.770906
0.85,243.8748,990.20,232.2381,85.1, -,8.770906
0.90,263.3495,989.50,250.7619,85.1, -,8.770906
0.95,296.7606,988.30,282.5714,85.1, -,8.770906
1.00,321.8391,987.40,306.4762,85.1, -,8.770906
1.05,349.727,986.40,333.0476,85.1, -,8.770906
1.10,377.6378,985.40,354.381,85.1, -,8.770906
1.15,405.5715,984.40,375.7619,85.1, -,8.770906
1.20,433.5283,983.40,389.2381,85.1, -,8.770906
1.25,469.9078,982.10,416,85.1, -,8.770906
1.30,503.5209,980.90,440.0952,85.1, -,8.770906
1.35,539.9756,979.60,464.2857,85.1, -,8.770906
1.40,573.6582,978.40,483.1905,85.1, -,8.770906
1.45,612.9992,977.00,510.1429,85.1, -,8.770906
1.50,646.7561,975.80,529.0952,84.92, -,8.751458
1.55,683.3633,974.50,550.7619,84.92, -,8.751458
1.60,722.8318,973.10,569.8571,84.92, -,8.751458
1.65,762.3446,971.70,591.619,84.92, -,8.751458
1.70,801.9053,970.30,613.4286,84.92, -,8.751458
1.75,847.1725,968.70,643.3333,84.92, -,8.751458
1.80,886.8324,967.30,652,84.92, -,8.751458
1.85,932.2134,965.70,676.7143,84.92, -,8.751458
1.90,974.8141,964.20,696.0952,84.92, -,8.751458
1.95,1028.853,962.30,729.0476,84.92, -,8.751458
2.00,1077.276,960.60,743.3333,84.92, -,8.751458
2.05,1134.333,958.60,773.7619,84.92, -,8.751458
2.10,1185.767,956.80,796.1905,84.92, -,8.751458
2.15,1245.872,954.70,826.8571,84.92, -,8.751458
2.20,1306.085,952.60,857.5714,84.92, -,8.751458
2.25,1372.156,950.30,893.8571,84.92, -,8.751458
2.30,1432.593,948.20,916.7619,84.92, -,8.751458
2.35,1501.799,945.80,950.6667,84.92, -,8.751458
2.40,1568.255,943.50,979.2381,84.92, -,8.751458
2.45,1652.234,940.60,1027.143,84.92, -,8.751458
2.50,1739.33,937.60,1072.619,84.92, -,8.751458
2.55,1849.975,933.80,1145.857,84.92, -,8.751458
2.60,1952.208,930.30,1208.381,84.92, -,8.751458
2.65,2060.623,926.60,1274.048,84.92, -,8.751458
2.70,2169.387,922.90,1340,84.92, -,8.751458
2.75,2290.325,918.80,1417.524,84.92, -,8.751458
2.80,2411.699,914.70,1490,84.92, -,8.751458
2.85,2563.296,909.60,1596.619,84.92, -,8.751458
2.90,2694.636,905.20,1678.476,84.92, -,8.751458
2.95,2862.549,899.60,1797.81,84.92, -,8.751458
3.00,2989.038,895.40,1866.81,84.92, -,8.751458
3.05,3070.608,892.70,1898.381,84.92, -,8.751458
3.10,3158.443,889.80,1927.714,84.92, -,8.751458
3.15,3249.55,886.80,1965.476,84.92, -,8.751458
3.20,3325.663,884.30,1980.714,84.92, -,8.751458
3.25,3411.117,881.50,2004.762,84.92, -,8.751458
3.30,3487.601,879.00,2014.714,84.92, -,8.751458
3.35,3567.331,876.40,2033.095,84.92, -,8.751458
3.40,3644.176,873.90,2040.381,84.92, -,8.751458
3.45,3727.369,871.20,2056.333,84.92, -,8.751458
3.50,3807.68,868.60,2052.81,84.74, -,8.751458
3.55,3891.282,865.90,2049.476,84.74, -,8.751458
3.60,3968.882,863.40,2018,84.74, -,8.751458
3.65,4046.664,860.90,1994.714,84.74, -,8.751458
3.70,4118.387,858.60,1959.762,84.74, -,8.751458
3.75,4187.133,856.40,1921.667,84.74, -,8.751458
3.80,4246.623,854.50,1863.143,84.74, -,8.751458
3.85,4306.22,852.60,1804.333,84.74, -,8.751458
3.90,4356.489,851.00,1707.81,84.74, -,8.751458
3.95,4403.686,849.50,1627.667,84.74, -,8.751458
4.00,4450.951,848.00,1512.762,84.74, -,8.751458
4.05,4498.284,846.50,1437.381,84.74, -,8.751458
4.10,4542.522,845.10,1401.857,84.74, -,8.751458
4.15,4586.819,843.70,1360.381,84.74, -,8.751458
4.20,4628.006,842.40,1312.857,84.74, -,8.751458
4.25,4669.246,841.10,1279.667,84.74, -,8.751458
4.30,4713.713,839.70,1240.619,84.74, -,8.751458
4.35,4764.609,838.10,1216.238,84.74, -,8.751458
4.40,4815.582,836.50,1188.81,84.74, -,8.751458
4.45,4885.799,834.30,1182.476,84.74, -,8.751458
4.50,4956.167,832.10,1170.238,84.74, -,8.751458
4.55,5026.684,829.90,1160.905,84.74, -,8.751458
4.60,5094.139,827.80,1145.524,84.74, -,8.751458
4.65,5161.731,825.70,1136,84.74, -,8.751458
4.70,5226.235,823.70,1123.333,84.74, -,8.751458
4.75,5297.336,821.50,1122.762,84.74, -,8.751458
4.80,5362.107,819.50,1118.952,84.74, -,8.751458
4.85,5430.254,817.40,1127.19,84.74, -,8.751458
4.90,5492.035,815.50,1129.286,84.74, -,8.751458
4.95,5557.192,813.50,1143.476,84.74, -,8.751458
5.00,5615.944,811.70,1154.476,84.74, -,8.751458
5.05,5671.529,810.00,1162.429,84.74, -,8.751458
5.10,5678.075,809.80,1123.571,84.74, -,8.751458
5.15,5707.546,808.90,1109.476,84.74, -,8.751458
5.20,5773.134,806.90,1129.762,84.74, -,8.751458
5.25,5855.304,804.40,1168.762,84.74, -,8.751458
5.30,5937.681,801.90,1207.952,84.74, -,8.751458
5.35,5990.513,800.30,1215.952,84.74, -,8.751458
5.40,6033.5,799.00,1208.429,84.74, -,8.751458
5.45,6106.378,796.80,1229.333,84.74, -,8.751458
5.50,6196.042,794.10,1247.857,84.74, -,8.751458
5.55,6299.294,791.00,1279.19,84.74, -,8.751458
5.60,6396.183,788.10,1304.333,84.74, -,8.751458
5.65,6493.359,785.20,1332.667,84.74, -,8.751458
5.70,6580.732,782.60,1351.476,84.74, -,8.751458
5.75,6671.712,779.90,1376.714,84.74, -,8.751458
5.80,6759.566,777.30,1392.667,84.74, -,8.751458
5.85,6857.836,774.40,1424.571,84.74, -,8.751458
5.90,6956.406,771.50,1453.524,84.74, -,8.751458
5.95,7038.209,769.10,1472.571,84.74, -,8.751458
6.00,7103.114,767.20,1472.333,84.74, -,8.751458
6.05,7161.3,765.50,1471.81,84.74, -,8.751458
6.10,7219.589,763.80,1474.381,84.74, -,8.751458
6.15,7298.619,761.50,1543.429,84.74, -,8.751458
6.20,7381.292,759.10,1594.095,84.74, -,8.751458
6.25,7481.468,756.20,1627.048,84.74, -,8.751458
6.30,7575.018,753.50,1637.905,84.74, -,8.751458
6.35,7679.281,750.50,1658.714,84.74, -,8.751458
6.40,7787.373,747.40,1711.333,84.74, -,8.751458
6.45,7878.313,744.80,1757,84.74, -,8.751458
6.50,7951.952,742.70,1757.714,84.74, -,8.751458
6.55,8032.796,740.40,1749.333,84.74, -,8.751458
6.60,8099.736,738.50,1714.762,84.74, -,8.751458
6.65,8173.883,736.40,1693.095,84.74, -,8.751458
6.70,8241.117,734.50,1664.571,84.74, -,8.751458
6.75,8312.042,732.50,1648.905,84.74, -,8.751458
6.80,8376.008,730.70,1623.143,84.74, -,8.751458
6.85,8447.231,728.70,1607.286,84.74, -,8.751458
6.90,8507.896,727.00,1571.476,84.74, -,8.751458
6.95,8572.254,725.20,1538.905,84.74, -,8.751458
7.00,8633.156,723.50,1519,84.74, -,8.751458
7.05,8694.175,721.80,1515.286,84.74, -,8.751458
7.10,8744.511,720.40,1507.81,84.74, -,8.751458
7.15,8791.325,719.10,1496.857,84.74, -,8.751458
7.20,8830.988,718.00,1459.333,84.74, -,8.751458
7.25,8877.928,716.70,1425.333,84.74, -,8.751458
7.30,8924.936,715.40,1374.667,84.74, -,8.751458
7.35,8982.889,713.80,1340.762,84.74, -,8.751458
7.40,9037.314,712.30,1293.333,84.74, -,8.751458
7.45,9091.832,710.80,1242.286,84.74, -,8.751458
7.50,9150.087,709.20,1211.143,84.74, -,8.732011
7.55,9208.45,707.60,1196.571,84.74, -,8.732011
7.60,9266.919,706.00,1175.238,84.74, -,8.732011
7.65,9329.16,704.30,1170.762,84.74, -,8.732011
7.70,9387.851,702.70,1156.048,84.74, -,8.732011
7.75,9454.007,700.90,1155,84.74, -,8.732011
7.80,9509.242,699.40,1140.095,84.74, -,8.732011
7.85,9575.654,697.60,1142.429,84.74, -,8.732011
7.90,9631.102,696.10,1127.429,84.74, -,8.732011
7.95,9694.058,694.40,1129.619,84.74, -,8.732011
8.00,9757.141,692.70,1128.429,84.74, -,8.732011
8.05,9820.35,691.00,1130.619,84.74, -,8.732011
8.10,9876.226,689.50,1125.762,84.74, -,8.732011
8.15,9939.672,687.80,1138.238,84.74, -,8.732011
8.20,9995.759,686.30,1147.095,84.74, -,8.732011
8.25,10059.45,684.60,1170,84.74, -,8.732011
8.30,10115.75,683.10,1178.905,84.74, -,8.732011
8.35,10179.67,681.40,1195,84.74, -,8.732011
8.40,10239.96,679.80,1197.238,84.74, -,8.732011
8.45,10300.36,678.20,1202.905,84.74, -,8.732011
8.50,10357.08,676.70,1205.048,84.74, -,8.732011
8.55,10413.92,675.20,1203.714,84.74, -,8.751458
8.60,10470.85,673.70,1202.381,84.74, -,8.751458
8.65,10531.7,672.10,1204.667,84.74, -,8.751458
8.70,10588.84,670.60,1199.81,84.74, -,8.751458
8.75,10646.09,669.10,1198.429,84.74, -,8.751458
8.80,10703.45,667.60,1190.048,84.74, -,8.751458
8.85,10760.91,666.10,1192.143,84.74, -,8.751458
8.90,10814.63,664.70,1180.048,84.74, -,8.751458
8.95,10876.14,663.10,1185.81,84.74, -,8.751458
9.00,10918.5,662.00,1166.19,84.74, -,8.751458
9.05,10960.91,660.90,1146.476,84.74, -,8.751458
9.10,11011.11,659.60,1134.095,84.74, -,8.751458
9.15,11065.26,658.20,1132.429,84.74, -,8.751458
9.20,11119.51,656.80,1123.667,84.74, -,8.751458
9.25,11181.62,655.20,1129.381,84.74, -,8.751458
9.30,11236.06,653.80,1120.571,84.74, -,8.751458
9.35,11278.91,652.70,1107.762,84.74, -,8.751458
9.40,11314.01,651.80,1080.333,84.74, -,8.751458
9.45,11356.96,650.70,1063.81,84.74, -,8.751458
9.50,11399.97,649.60,1047.238,84.74, -,8.770906
9.55,11450.88,648.30,1041.667,84.74, -,8.770906
9.60,11497.94,647.10,1032.333,84.74, -,8.770906
9.65,11552.94,645.70,1030.476,84.74, -,8.770906
9.70,11604.09,644.40,1021.238,84.74, -,8.770906
9.75,11663.22,642.90,1023.143,84.74, -,8.770906
9.80,11714.56,641.60,1017.524,84.74, -,8.770906
9.85,11758.07,640.50,1004.333,84.74, -,8.770906
9.90,11809.56,639.20,998.6667,84.74, -,8.770906
9.95,11837.32,638.50,973.9524,84.74, -,8.770906
10.00,11865.11,637.80,941.8571,84.74, -,8.770906
10.05,11920.75,636.40,954.5238,84.74, -,8.770906
10.10,11972.52,635.10,963.4286,84.74, -,8.770906
10.15,12032.35,633.60,972.619,84.74, -,8.770906
10.20,12036.34,633.50,924.8571,84.74, -,8.770906
10.25,12064.3,632.80,899.8095,84.74, -,8.770906
10.30,12096.29,632.00,871.1429,84.74, -,8.770906
10.35,12136.33,631.00,857.4286,84.74, -,8.770906
10.40,12172.4,630.10,850.9524,84.74, -,8.770906
10.45,12192.46,629.60,836.619,84.74, -,8.770906
10.50,12220.56,628.90,822.4762,84.74, -,8.770906
10.55,12256.74,628.00,815.9524,84.74, -,8.751458
10.60,12292.95,627.10,801.9524,84.74, -,8.751458
10.65,12333.24,626.10,795.5238,84.74, -,8.751458
10.70,12377.61,625.00,785.381,84.74, -,8.751458
10.75,12426.09,623.80,782.8571,84.74, -,8.751458
10.80,12470.6,622.70,768.9048,84.74, -,8.751458
10.85,12515.17,621.60,762.4286,84.74, -,8.751458
10.90,12551.69,620.70,755.7619,84.74, -,8.751458
10.95,12588.25,619.80,741.5238,84.74, -,8.751458
11.00,12624.84,618.90,749.9524,84.74, -,8.751458
11.05,12657.42,618.10,754.4762,84.74, -,8.751458
11.10,12685.94,617.40,728.6667,84.74, -,8.751458
11.15,12722.66,616.50,714.3333,84.74, -,8.751458
11.20,12751.25,615.80,684.5714,84.74, -,8.751458
11.25,12788.04,614.90,715.8095,84.74, -,8.751458
11.30,12824.88,614.00,724.2857,84.74, -,8.751458
11.35,12865.86,613.00,732.8571,84.74, -,8.751458
11.40,12902.79,612.10,729.9048,84.74, -,8.751458
11.45,12939.76,611.20,730.7619,84.74, -,8.751458
11.50,12976.78,610.30,746.9048,84.74, -,8.790354
11.55,13009.72,609.50,751.5238,84.74, -,8.790354
11.60,13042.7,608.70,748.5238,84.74, -,8.790354
11.65,13075.71,607.90,745.4762,84.74, -,8.790354
11.70,13104.63,607.20,734.619,84.74, -,8.790354
11.75,13141.84,606.30,727.8095,84.74, -,8.790354
11.80,13170.82,605.60,709.2381,84.74, -,8.790354
11.85,13203.97,604.80,698.4286,84.74, -,8.790354
11.90,13237.15,604.00,687.619,84.74, -,8.790354
11.95,13274.53,603.10,688.4762,84.74, -,8.790354
12.00,13303.63,602.40,681.381,84.74, -,8.790354
12.05,13341.08,601.50,682.1905,84.74, -,8.790354
12.10,13378.58,600.60,686.9048,84.74, -,8.790354
12.15,13420.3,599.60,699.4286,84.74, -,8.790354
12.20,13457.9,598.70,700.2857,84.74, -,8.790354
12.25,13499.73,597.70,712.9048,84.74, -,8.790354
12.30,13537.42,596.80,713.7619,84.74, -,8.790354
12.35,13579.36,595.80,718.619,84.74, -,8.790354
12.40,13612.95,595.00,711.5714,84.74, -,8.790354
12.45,13654.99,594.00,716.4286,84.74, -,8.790354
12.50,13692.87,593.10,717.3333,84.74, -,8.790354
12.55,13735.02,592.10,722.2381,84.74, -,8.790354
12.60,13773,591.20,727.0476,84.74, -,8.790354
12.65,13811.03,590.30,731.8571,84.74, -,8.790354
12.70,13849.11,589.40,736.7143,84.74, -,8.790354
12.75,13887.23,588.50,745.4762,84.74, -,8.790354
12.80,13925.4,587.60,746.381,84.74, -,8.790354
12.85,13963.62,586.70,755.1429,84.74, -,8.790354
12.90,14001.89,585.80,760,84.74, -,8.790354
12.95,14044.46,584.80,768.9048,84.74, -,8.790354
13.00,14082.82,583.90,769.8095,84.74, -,8.790354
13.05,14125.51,582.90,782.7619,84.74, -,8.790354
13.10,14163.98,582.00,783.7143,84.74, -,8.790354
13.15,14206.78,581.00,788.7619,84.74, -,8.790354
13.20,14241.06,580.20,781.7143,84.74, -,8.790354
13.25,14279.67,579.30,782.6667,84.74, -,8.790354
13.30,14318.33,578.40,779.619,84.74, -,8.790354
13.35,14361.34,577.40,784.6667,84.74, -,8.790354
13.40,14400.11,576.50,781.619,84.74, -,8.790354
13.45,14443.24,575.50,790.7143,84.74, -,8.790354
13.50,14477.79,574.70,783.5714,84.74, -,8.751458
13.55,14521.02,573.70,788.6667,84.74, -,8.751458
13.60,14555.66,572.90,781.5238,84.74, -,8.751458
13.65,14599.01,571.90,786.619,84.74, -,8.751458
13.70,14638.07,571.00,787.5714,84.74, -,8.751458
13.75,14677.19,570.10,788.5238,84.74, -,8.751458
13.80,14712,569.30,785.381,84.74, -,8.751458
13.85,14755.57,568.30,790.5238,84.74, -,8.751458
13.90,14790.47,567.50,787.381,84.74, -,8.751458
13.95,14829.79,566.60,788.381,84.74, -,8.751458
14.00,14864.77,565.80,781.1905,84.74, -,8.751458
14.05,14904.18,564.90,782.1905,84.74, -,8.751458
14.10,14943.63,564.00,779.0952,84.74, -,8.751458
14.15,14983.15,563.10,780.0952,84.74, -,8.751458
14.20,15018.31,562.30,772.8095,84.74, -,8.751458
14.25,15057.91,561.40,777.8571,84.74, -,8.751458
14.30,15093.16,560.60,774.6667,84.74, -,8.751458
14.35,15132.86,559.70,775.6667,84.74, -,8.751458
14.40,15168.2,558.90,768.381,84.74, -,8.751458
14.45,15203.58,558.10,765.1905,84.74, -,8.751458
14.50,15238.99,557.30,757.8095,84.74, -,8.751458
14.55,15278.88,556.40,762.9048,84.74, -,8.751458
14.60,15314.39,555.60,755.5238,84.74, -,8.751458
14.65,15354.38,554.70,760.619,84.74, -,8.751458
14.70,15385.52,554.00,749,84.74, -,8.751458
14.75,15421.15,553.20,745.7619,84.74, -,8.751458
14.80,15461.29,552.30,746.7619,84.74, -,8.751458
14.85,15497,551.50,747.619,84.74, -,8.751458
14.90,15528.29,550.80,735.9524,84.74, -,8.751458
14.95,15568.56,549.90,741.0476,84.74, -,8.751458
15.00,15599.93,549.20,733.4762,84.74, -,8.751458
15.05,15635.81,548.40,734.3333,84.74, -,8.751458
15.10,15671.73,547.60,731.0476,84.74, -,8.751458
15.15,15703.2,546.90,723.4286,84.74, -,8.751458
15.20,15730.2,546.30,711.5238,84.74, -,8.751458
15.25,15757.22,545.70,703.7619,84.74, -,8.751458
15.30,15793.29,544.90,700.381,84.74, -,8.751458
15.35,15829.4,544.10,701.1905,84.74, -,8.751458
15.40,15861.03,543.40,693.5238,84.74, -,8.751458
15.45,15897.22,542.60,694.3333,84.74, -,8.751458
15.50,15933.46,541.80,695.1429,84.74, -,8.732011
15.55,15947.06,541.50,674.381,84.74, -,8.732011
15.60,15956.13,541.30,645,84.74, -,8.732011
15.65,15987.89,540.60,641.4286,84.74, -,8.732011
15.70,16015.14,540.00,629.2857,84.74, -,8.732011
15.75,16051.52,539.20,634.2857,84.74, -,8.732011
15.80,16083.39,538.50,630.6667,84.74, -,8.732011
15.85,16115.28,537.80,622.8095,84.74, -,8.732011
15.90,16147.22,537.10,619.2381,84.74, -,8.732011
15.95,16179.18,536.40,619.8571,84.74, -,8.732011
16.00,16183.75,536.30,585.8571,84.74, -,8.732011
16.05,16160.91,536.80,534.2381,84.74, -,8.732011
16.10,16165.48,536.70,504.381,84.74, -,8.732011
16.15,16188.32,536.20,491.9048,84.74, -,8.732011
16.20,16215.76,535.60,488.0952,84.74, -,8.732011
16.25,16247.79,534.90,492.9048,84.74, -,8.732011
16.30,16279.87,534.20,497.7143,84.74, -,8.732011
16.35,16316.56,533.40,498.3333,84.74, -,8.732011
16.40,16348.71,532.70,494.5714,84.74, -,8.732011
16.45,16385.48,531.90,499.4762,84.74, -,8.732011
16.50,16417.71,531.20,495.6667,84.74, -,8.732011
16.55,16454.57,530.40,496.2381,84.74, -,8.732011
16.60,16491.48,529.60,518.4286,84.74, -,8.732011
16.65,16523.81,528.90,540.619,84.74, -,8.732011
16.70,16556.18,528.20,541.1905,84.74, -,8.732011
16.75,16593.21,527.40,550.5238,84.74, -,8.732011
16.80,16625.65,526.70,546.7619,84.74, -,8.732011
16.85,16662.77,525.90,551.7619,84.74, -,8.732011
16.90,16695.28,525.20,552.3333,84.74, -,8.732011
16.95,16732.49,524.40,557.3333,84.74, -,8.732011
17.00,16765.08,523.70,557.9524,84.74, -,8.732011
17.05,16797.71,523.00,584.7143,84.74, -,8.732011
17.10,16835.04,522.20,642.0476,84.74, -,8.732011
17.15,16867.74,521.50,668.8571,84.74, -,8.732011
17.20,16900.48,520.80,678.2857,84.74, -,8.732011
17.25,16933.25,520.10,683.3333,84.74, -,8.732011
17.30,16966.06,519.40,684.0476,84.74, -,8.732011
17.35,17003.61,518.60,689.2857,84.74, -,8.732011
17.40,17036.49,517.90,685.6667,84.74, -,8.732011
17.45,17069.41,517.20,686.381,84.74, -,8.732011
17.50,17102.37,516.50,682.7143,84.74, -,8.790354
17.55,17135.37,515.80,683.4762,84.74, -,8.790354
17.60,17168.4,515.10,679.8571,84.74, -,8.790354
17.65,17201.46,514.40,676.1905,84.74, -,8.790354
17.70,17234.57,513.70,676.9048,84.74, -,8.790354
17.75,17267.71,513.00,677.6667,84.74, -,8.790354
17.80,17300.89,512.30,674,84.74, -,8.790354
17.85,17334.1,511.60,674.7143,84.74, -,8.790354
17.90,17362.6,511.00,666.5238,84.74, -,8.790354
17.95,17395.88,510.30,667.2857,84.74, -,8.790354
18.00,17429.2,509.60,663.5714,84.74, -,8.790354
18.05,17462.56,508.90,664.2857,84.74, -,8.790354
18.10,17491.18,508.30,660.4286,84.74, -,8.790354
18.15,17524.6,507.60,656.6667,84.74, -,8.790354
18.20,17553.28,507.00,652.8571,84.74, -,8.790354
18.25,17591.57,506.20,658.1429,84.74, -,8.790354
18.30,17620.31,505.60,654.3333,84.74, -,8.790354
18.35,17653.88,504.90,655.0476,84.74, -,8.790354
18.40,17682.69,504.30,646.7143,84.74, -,8.790354
18.45,17716.33,503.60,647.4286,84.74, -,8.790354
18.50,17745.19,503.00,643.5714,84.74, -,8.790354
18.55,17778.9,502.30,644.2857,84.92, -,8.790354
18.60,17812.65,501.60,645,84.92, -,8.790354
18.65,17841.61,501.00,641.0952,84.92, -,8.790354
18.70,17870.59,500.40,637.2381,84.92, -,8.790354
18.75,17904.45,499.70,637.9524,84.92, -,8.790354
18.80,17928.65,499.20,629.4286,84.92, -,8.790354
18.85,17962.57,498.50,630.0952,84.92, -,8.790354
18.90,17991.67,497.90,626.1905,84.92, -,8.790354
18.95,18025.66,497.20,631.4286,84.92, -,8.790354
19.00,18054.83,496.60,627.4762,84.92, -,8.790354
19.05,18084.02,496.00,623.5714,84.92, -,8.790354
19.10,18113.24,495.40,619.619,84.92, -,8.790354
19.15,18147.37,494.70,624.9048,84.92, -,8.790354
19.20,18176.66,494.10,621,84.92, -,8.790354
19.25,18205.97,493.50,621.5714,84.92, -,8.790354
19.30,18230.42,493.00,608.381,84.92, -,8.790354
19.35,18264.69,492.30,613.619,84.92, -,8.790354
19.40,18289.18,491.80,605,84.92, -,8.790354
19.45,18323.51,491.10,610.2857,84.92, -,8.790354
19.50,18348.06,490.60,601.619,84.92, -,8.790354
19.55,18377.54,490.00,602.2381,84.92, -,8.790354
19.60,18407.05,489.40,598.2381,84.92, -,8.790354
19.65,18436.6,488.80,594.2381,84.92, -,8.790354
19.70,18466.17,488.20,594.8095,84.92, -,8.790354
19.75,18495.77,487.60,595.381,84.92, -,8.790354
19.80,18520.46,487.10,586.6667,84.92, -,8.790354
19.85,18550.11,486.50,591.8571,84.92, -,8.790354
19.90,18579.79,485.90,587.8571,84.92, -,8.790354
19.95,18609.51,485.30,588.4286,84.92, -,8.790354
20.00,18639.25,484.70,584.381,84.92, -,8.790354
20.05,18669.03,484.10,584.9524,84.92, -,8.790354
20.10,18693.86,483.60,580.8095,84.92, -,8.790354
20.15,18718.71,483.10,576.6667,84.92, -,8.790354
20.20,18748.57,482.50,572.5714,84.92, -,8.790354
20.25,18778.45,481.90,573.1429,84.92, -,8.790354
